#SUBSTANCE=Sulphuric acid
#DESCRIPTION=Refractive indices of 61wt% H<sub>2</sub>SO<sub>4</sub> at 210 K
#SAMPLEFORM=Aerosol
#TEMPERATURE=210 K
#CONCENTRATION=61 wt%
#DOI=10.1021/jp991323o
#REFERENCE=A Temperature- and Composition-Dependent Study of H2SO4 Aerosol Optical Constants Using Fourier Transform and Tunable Diode Laser Infrared Spectroscopy
##R. F. Niedziela,â€ , M. L. Norman,C. L. DeForest, and, R. E. Miller*, and D. R. Worsnop
##The Journal of Physical Chemistry A 1999 103 (40), 8030-8040
#FORMAT=WAVN K N
4700.82	0.002	1.388
4600.52	0.002	1.383
4500.21	0.002	1.378
4399.91	0.002	1.373
4299.6	0.001	1.367
4199.3	0.001	1.36
4100.92	0.002	1.35
4000.62	0.003	1.342
3900.31	0.004	1.33
3800.01	0.004	1.313
3699.7	0.005	1.285
3599.4	0.035	1.23
3560.82	0.062	1.218
3520.31	0.093	1.214
3479.8	0.123	1.217
3439.3	0.152	1.23
3400.72	0.174	1.248
3360.21	0.188	1.271
3319.7	0.193	1.291
3279.19	0.196	1.308
3240.62	0.196	1.322
3200.11	0.195	1.334
3159.6	0.192	1.344
3119.09	0.19	1.35
3080.51	0.189	1.355
3040.01	0.189	1.361
2999.5	0.186	1.366
2960.92	0.187	1.365
2920.41	0.195	1.369
2879.9	0.199	1.378
2839.4	0.201	1.389
2800.82	0.198	1.401
2760.31	0.192	1.409
2719.8	0.185	1.413
2679.29	0.179	1.415
2640.72	0.175	1.415
2600.21	0.172	1.416
2559.7	0.168	1.417
2519.19	0.165	1.416
2480.61	0.163	1.415
2440.11	0.16	1.413
2399.6	0.159	1.409
2359.09	0.16	1.404
2320.51	0.163	1.402
2280	0.166	1.4
2239.5	0.168	1.402
2220.21	0.168	1.402
2200.92	0.168	1.402
2179.7	0.166	1.403
2139.19	0.162	1.399
2100.61	0.16	1.392
2060.11	0.16	1.381
2019.6	0.164	1.368
1979.09	0.172	1.353
1940.51	0.187	1.338
1900	0.211	1.325
1869.14	0.234	1.32
1840.21	0.261	1.321
1809.34	0.29	1.33
1780.41	0.319	1.349
1749.55	0.342	1.382
1720.61	0.353	1.425
1710.97	0.351	1.443
1699.39	0.344	1.462
1670.46	0.31	1.499
1639.6	0.262	1.512
1610.66	0.219	1.502
1579.8	0.189	1.467
1550.87	0.181	1.435
1520	0.184	1.403
1489.14	0.193	1.377
1460.21	0.203	1.355
1429.34	0.215	1.331
1400.41	0.232	1.301
1369.55	0.26	1.276
1340.61	0.29	1.252
1309.75	0.325	1.236
1280.81	0.345	1.196
1249.95	0.432	1.111
1219.09	0.604	1.108
1211.37	0.641	1.123
1199.8	0.693	1.15
1188.23	0.745	1.178
1176.65	0.804	1.219
1172.79	0.822	1.24
1168.94	0.836	1.261
1163.15	0.858	1.295
1159.29	0.867	1.323
1155.43	0.87	1.35
1151.58	0.869	1.373
1147.72	0.868	1.392
1143.86	0.867	1.412
1140	0.862	1.431
1136.14	0.855	1.444
1132.29	0.852	1.455
1120.71	0.849	1.476
1109.14	0.859	1.502
1097.57	0.875	1.539
1089.85	0.864	1.565
1085.99	0.866	1.566
1082.13	0.869	1.569
1078.28	0.876	1.569
1070.56	0.913	1.571
1058.99	0.988	1.635
1055.13	1.011	1.67
1051.27	1.026	1.712
1043.56	1.035	1.805
1035.84	1.022	1.904
1028.12	0.971	2.003
1024.27	0.93	2.041
1020.41	0.89	2.069
1008.83	0.76	2.127
1004.98	0.713	2.131
1001.12	0.669	2.127
989.55	0.579	2.076
977.97	0.55	2.069
970.26	0.504	2.057
966.4	0.487	2.048
958.68	0.452	2.026
950.97	0.425	1.992
943.25	0.41	1.962
935.53	0.409	1.927
927.82	0.421	1.898
923.96	0.43	1.888
916.25	0.463	1.879
912.39	0.481	1.885
904.67	0.508	1.913
900.81	0.513	1.939
896.96	0.508	1.963
893.1	0.498	1.984
885.38	0.46	2.021
881.52	0.437	2.031
873.81	0.382	2.03
869.95	0.368	2.02
862.24	0.34	2.015
858.38	0.321	2.009
850.66	0.291	1.983
846.8	0.283	1.967
839.09	0.276	1.943
827.51	0.268	1.921
