#SUBSTANCE=Quartz Glass
#DESCRIPTION=Refractive index of quartz glass from 0.2–3 μm at 24°C
#TEMPERATURE=24°C
#REFERENCE=M.A. Khashan, A.Y. Nassif, Dispersion of the optical constants of quartz and polymethyl methacrylate glasses in a wide spectral range: 0.2–3 μm, In Optics Communications, Volume 188, Issues 1–4, 2001, Pages 129-139, ISSN 0030-4018, https://doi.org/10.1016/S0030-4018(00)01152-4.
#DOI=10.1016/S0030-4018(00)01152-4
#COMMENT=Data from R. Kitamura, L. Pilon, and M. Jonasz, 2007.
##Optical Constants of Fused Quartz From Extreme Ultraviolet to Far Infrared at Near Room Temperatures.
##Applied Optics, Vol. 46, No. 33, pp. 8118-8133.
#FORMAT=WAVL N K
0.20 	1.687 	1.3540E-05
0.22 	1.543 	1.8130E-05
0.24 	1.552 	1.9620E-05
0.26 	1.571 	2.0900E-05
0.28 	1.539 	2.3170E-05
0.30 	1.503 	6.6900E-06
0.32 	1.471 	1.6200E-06
0.34 	1.492 	3.9000E-07
0.36 	1.505 	1.5000E-07
0.38 	1.512 	1.1000E-07
0.40 	1.522 	7.0000E-08
0.42 	1.527 	7.0000E-08
0.44 	1.528 	7.0000E-08
0.46 	1.525 	7.0000E-08
0.48 	1.520 	8.0000E-08
0.50 	1.515 	8.0000E-08
0.52 	1.511 	7.0000E-08
0.54 	1.509 	8.0000E-08
0.56 	1.505 	8.0000E-08
0.58 	1.507 	8.0000E-08
0.60 	1.509 	8.0000E-08
0.62 	1.509 	8.0000E-08
0.64 	1.510 	9.0000E-08
0.66 	1.511 	1.1000E-07
0.68 	1.513 	1.0000E-07
0.70 	1.517 	1.1000E-07
0.72 	1.522 	1.2000E-07
0.74 	1.529 	1.2000E-07
0.76 	1.538 	1.2000E-07
0.78 	1.546 	1.3000E-07
0.80 	1.554 	1.3000E-07
0.84 	1.559 	8.0000E-08
0.88 	1.558 	5.0000E-08
0.92 	1.550 	1.0000E-07
0.96 	1.548 	1.1000E-07
1.00 	1.548 	9.0000E-08
1.04 	1.551 	6.0000E-08
1.08 	1.550 	6.0000E-08
1.12 	1.551 	6.0000E-08
1.16 	1.549 	4.0000E-08
1.20 	1.550 	4.0000E-08
1.24 	1.547 	4.0000E-08
1.28 	1.544 	4.0000E-08
1.32 	1.541 	6.0000E-08
1.36 	1.532 	1.2000E-07
1.40 	1.533 	8.0000E-08
1.44 	1.535 	8.0000E-08
1.48 	1.532 	7.0000E-08
1.52 	1.527 	7.0000E-08
1.56 	1.527 	5.0000E-08
1.60 	1.525 	5.0000E-08
1.64 	1.522 	8.0000E-08
1.68 	1.519 	1.2000E-07
1.72 	1.512 	1.5000E-07
1.76 	1.513 	1.8000E-07
1.80 	1.521 	7.0000E-08
1.84 	1.515 	2.7000E-07
1.88 	1.516 	2.1000E-07
1.92 	1.507 	3.8000E-07
1.96 	1.509 	3.1000E-07
2.00 	1.505 	4.4000E-07
2.04 	1.510 	4.4000E-07
2.08 	1.511 	4.6000E-07
2.12 	1.511 	5.2000E-07
2.16 	1.493 	7.9000E-07
2.20 	1.501 	9.3000E-07
2.24 	1.493 	1.1100E-06
2.28 	1.483 	1.0200E-06
2.32 	1.495 	1.0600E-06
2.36 	1.494 	1.1100E-06
2.40 	1.485 	1.2900E-06
2.44 	1.485 	1.5400E-06
2.48 	1.483 	1.7200E-06
2.52 	1.481 	1.9200E-06
2.56 	1.479 	2.0600E-06
2.60 	1.473 	2.5900E-06
2.64 	1.460 	2.8100E-06
2.68 	1.440 	3.1600E-06
2.70 	1.433 	3.9300E-06
2.72 	1.417 	7.0900E-06
2.76 	1.409 	2.1260E-05
2.80 	1.438 	3.1320E-05
2.84 	1.445 	3.5400E-05
2.88 	1.482 	3.6350E-05
2.92 	1.458 	3.6480E-05
2.96 	1.445 	3.6410E-05
3.00 	1.507 	3.5950E-05
