#SUBSTANCE=Sulphuric acid
#DESCRIPTION=Refractive indices of 50wt% H<sub>2</sub>SO<sub>4</sub> at 200 K
#SAMPLEFORM=Aerosol
#TEMPERATURE=200 K
#CONCENTRATION=50 wt%
#DOI=10.1021/jp991323o
#REFERENCE=A Temperature- and Composition-Dependent Study of H2SO4 Aerosol Optical Constants Using Fourier Transform and Tunable Diode Laser Infrared Spectroscopy
##R. F. Niedziela,â€ , M. L. Norman,C. L. DeForest, and, R. E. Miller*, and D. R. Worsnop
##The Journal of Physical Chemistry A 1999 103 (40), 8030-8040
#FORMAT=WAVN K N
4700.82	0.001	1.375
4600.52	0.001	1.371
4500.21	0	1.366
4399.91	0.001	1.361
4299.6	0.001	1.356
4199.3	0.001	1.349
4100.92	0.001	1.342
4000.62	0.001	1.332
3900.31	0.001	1.318
3800.01	0.001	1.299
3699.7	0.002	1.267
3599.4	0.034	1.202
3560.82	0.069	1.183
3520.31	0.112	1.176
3479.8	0.156	1.184
3439.3	0.195	1.206
3400.72	0.225	1.234
3360.21	0.243	1.272
3319.7	0.248	1.305
3279.19	0.248	1.335
3240.62	0.246	1.361
3200.11	0.234	1.387
3159.6	0.22	1.408
3119.09	0.202	1.42
3080.51	0.187	1.426
3040.01	0.173	1.429
2999.5	0.161	1.43
2960.92	0.15	1.426
2920.41	0.149	1.423
2879.9	0.144	1.423
2839.4	0.144	1.423
2800.82	0.139	1.424
2760.31	0.135	1.424
2719.8	0.131	1.425
2679.29	0.127	1.423
2640.72	0.123	1.422
2600.21	0.12	1.419
2559.7	0.116	1.415
2519.19	0.114	1.41
2480.61	0.114	1.405
2440.11	0.115	1.4
2399.6	0.119	1.395
2359.09	0.125	1.392
2320.51	0.128	1.391
2280	0.132	1.39
2239.5	0.134	1.391
2220.21	0.135	1.391
2200.92	0.135	1.391
2179.7	0.135	1.389
2139.19	0.135	1.387
2100.61	0.136	1.383
2060.11	0.137	1.376
2019.6	0.141	1.368
1979.09	0.149	1.357
1940.51	0.16	1.346
1900	0.181	1.337
1869.14	0.2	1.335
1840.21	0.221	1.338
1809.34	0.243	1.347
1780.41	0.265	1.364
1749.55	0.28	1.392
1720.61	0.283	1.423
1710.97	0.28	1.434
1699.39	0.274	1.444
1670.46	0.259	1.462
1639.6	0.238	1.483
1610.66	0.203	1.487
1579.8	0.177	1.466
1550.87	0.169	1.445
1520	0.169	1.425
1489.14	0.173	1.409
1460.21	0.18	1.396
1429.34	0.187	1.383
1400.41	0.193	1.366
1369.55	0.211	1.352
1340.61	0.218	1.346
1309.75	0.229	1.325
1280.81	0.246	1.296
1249.95	0.283	1.255
1219.09	0.359	1.227
1211.37	0.377	1.226
1199.8	0.406	1.222
1188.23	0.441	1.22
1176.65	0.482	1.224
1172.79	0.498	1.226
1168.94	0.512	1.23
1163.15	0.534	1.238
1159.29	0.547	1.243
1155.43	0.564	1.25
1151.58	0.578	1.257
1147.72	0.595	1.267
1143.86	0.609	1.279
1140	0.622	1.291
1136.14	0.632	1.303
1132.29	0.647	1.315
1120.71	0.68	1.358
1109.14	0.709	1.41
1097.57	0.727	1.47
1089.85	0.732	1.51
1085.99	0.73	1.533
1082.13	0.727	1.55
1078.28	0.726	1.566
1070.56	0.728	1.605
1058.99	0.707	1.661
1055.13	0.7	1.676
1051.27	0.695	1.692
1043.56	0.686	1.732
1035.84	0.66	1.773
1028.12	0.624	1.808
1024.27	0.605	1.822
1020.41	0.584	1.834
1008.83	0.514	1.853
1004.98	0.491	1.853
1001.12	0.468	1.848
989.55	0.43	1.803
977.97	0.425	1.815
970.26	0.41	1.823
966.4	0.386	1.822
958.68	0.365	1.814
950.97	0.347	1.802
943.25	0.332	1.788
935.53	0.323	1.774
927.82	0.319	1.759
923.96	0.32	1.753
916.25	0.319	1.745
912.39	0.319	1.742
904.67	0.32	1.739
900.81	0.321	1.74
896.96	0.319	1.74
893.1	0.318	1.741
885.38	0.309	1.742
881.52	0.308	1.741
873.81	0.302	1.737
869.95	0.3	1.736
862.24	0.295	1.742
858.38	0.286	1.742
850.66	0.27	1.731
846.8	0.266	1.724
839.09	0.265	1.711
827.51	0.263	1.701
