#SUBSTANCE=Sulphuric acid
#DESCRIPTION=Refractive indices of 72wt% H<sub>2</sub>SO<sub>4</sub> at 220 K
#SAMPLEFORM=Aerosol
#TEMPERATURE=220 K
#CONCENTRATION=72 wt%
#DOI=10.1021/jp991323o
#REFERENCE=A Temperature- and Composition-Dependent Study of H2SO4 Aerosol Optical Constants Using Fourier Transform and Tunable Diode Laser Infrared Spectroscopy
##R. F. Niedziela,â€ , M. L. Norman,C. L. DeForest, and, R. E. Miller*, and D. R. Worsnop
##The Journal of Physical Chemistry A 1999 103 (40), 8030-8040
#FORMAT=WAVN K N
4700.82	0.002	1.38
4600.52	0.001	1.376
4500.21	0.001	1.372
4399.91	0	1.368
4299.6	0.002	1.363
4199.3	0.002	1.359
4100.92	0.002	1.354
4000.62	0.002	1.347
3900.31	0.002	1.339
3800.01	0.002	1.327
3699.7	0.001	1.309
3599.4	0.016	1.27
3560.82	0.034	1.26
3520.31	0.055	1.255
3479.8	0.074	1.256
3439.3	0.091	1.263
3400.72	0.104	1.27
3360.21	0.114	1.28
3319.7	0.118	1.289
3279.19	0.124	1.294
3240.62	0.129	1.298
3200.11	0.135	1.304
3159.6	0.14	1.309
3119.09	0.145	1.313
3080.51	0.15	1.318
3040.01	0.156	1.324
2999.5	0.164	1.333
2960.92	0.166	1.341
2920.41	0.171	1.345
2879.9	0.172	1.358
2839.4	0.175	1.368
2800.82	0.171	1.38
2760.31	0.167	1.388
2719.8	0.16	1.394
2679.29	0.155	1.396
2640.72	0.153	1.396
2600.21	0.15	1.397
2559.7	0.148	1.399
2519.19	0.146	1.402
2480.61	0.144	1.403
2440.11	0.139	1.405
2399.6	0.133	1.404
2359.09	0.132	1.4
2320.51	0.132	1.397
2280	0.134	1.391
2239.5	0.137	1.392
2220.21	0.138	1.394
2200.92	0.138	1.396
2179.7	0.136	1.397
2139.19	0.13	1.395
2100.61	0.126	1.392
2060.11	0.122	1.382
2019.6	0.123	1.371
1979.09	0.126	1.356
1940.51	0.137	1.344
1900	0.152	1.329
1869.14	0.169	1.321
1840.21	0.189	1.318
1809.34	0.214	1.319
1780.41	0.24	1.33
1749.55	0.262	1.352
1720.61	0.278	1.385
1710.97	0.279	1.399
1699.39	0.277	1.417
1670.46	0.251	1.452
1639.6	0.21	1.468
1610.66	0.173	1.459
1579.8	0.144	1.433
1550.87	0.137	1.402
1520	0.137	1.372
1489.14	0.142	1.348
1460.21	0.15	1.322
1429.34	0.166	1.297
1400.41	0.176	1.269
1369.55	0.203	1.225
1340.61	0.251	1.195
1309.75	0.309	1.183
1280.81	0.342	1.17
1249.95	0.421	1.108
1219.09	0.592	1.121
1211.37	0.629	1.146
1199.8	0.676	1.187
1188.23	0.71	1.231
1176.65	0.749	1.274
1172.79	0.765	1.293
1168.94	0.775	1.313
1163.15	0.794	1.347
1159.29	0.798	1.372
1155.43	0.808	1.397
1151.58	0.807	1.427
1147.72	0.808	1.451
1143.86	0.805	1.481
1140	0.795	1.51
1136.14	0.778	1.533
1132.29	0.76	1.55
1120.71	0.717	1.589
1109.14	0.672	1.599
1097.57	0.655	1.589
1089.85	0.643	1.591
1085.99	0.639	1.58
1082.13	0.639	1.572
1078.28	0.646	1.556
1070.56	0.687	1.542
1058.99	0.763	1.571
1055.13	0.779	1.597
1051.27	0.8	1.625
1043.56	0.826	1.702
1035.84	0.814	1.785
1028.12	0.778	1.86
1024.27	0.748	1.893
1020.41	0.719	1.918
1008.83	0.616	1.956
1004.98	0.588	1.96
1001.12	0.554	1.959
989.55	0.487	1.933
977.97	0.453	1.915
970.26	0.418	1.903
966.4	0.402	1.892
958.68	0.381	1.873
950.97	0.368	1.85
943.25	0.359	1.823
935.53	0.359	1.793
927.82	0.378	1.76
923.96	0.389	1.745
916.25	0.442	1.741
912.39	0.467	1.748
904.67	0.514	1.789
900.81	0.528	1.828
896.96	0.522	1.863
893.1	0.517	1.895
885.38	0.477	1.957
881.52	0.447	1.977
873.81	0.381	1.996
869.95	0.354	1.992
862.24	0.305	1.984
858.38	0.283	1.975
850.66	0.247	1.95
846.8	0.235	1.936
839.09	0.218	1.911
827.51	0.2	1.882
