#SUBSTANCE=Sulphuric acid
#DESCRIPTION=Refractive indices of 80wt% H<sub>2</sub>SO<sub>4</sub> at 240 K
#SAMPLEFORM=Aerosol
#TEMPERATURE=240 K
#CONCENTRATION=80 wt%
#DOI=10.1021/jp991323o
#REFERENCE=A Temperature- and Composition-Dependent Study of H2SO4 Aerosol Optical Constants Using Fourier Transform and Tunable Diode Laser Infrared Spectroscopy
##R. F. Niedziela,â€ , M. L. Norman,C. L. DeForest, and, R. E. Miller*, and D. R. Worsnop
##The Journal of Physical Chemistry A 1999 103 (40), 8030-8040
#FORMAT=WAVN K N
4700.82	0.004	1.389
4600.52	0.004	1.388
4500.21	0.003	1.385
4399.91	0.002	1.38
4299.6	0.005	1.378
4199.3	0.004	1.373
4100.92	0.005	1.367
4000.62	0.004	1.361
3900.31	0.006	1.354
3800.01	0.005	1.342
3699.7	0.006	1.325
3599.4	0.018	1.301
3560.82	0.027	1.294
3520.31	0.037	1.288
3479.8	0.046	1.283
3439.3	0.056	1.279
3400.72	0.066	1.276
3360.21	0.076	1.274
3319.7	0.087	1.271
3279.19	0.099	1.269
3240.62	0.111	1.267
3200.11	0.126	1.267
3159.6	0.142	1.27
3119.09	0.158	1.275
3080.51	0.172	1.282
3040.01	0.187	1.292
2999.5	0.2	1.305
2960.92	0.209	1.318
2920.41	0.218	1.334
2879.9	0.223	1.351
2839.4	0.225	1.369
2800.82	0.222	1.384
2760.31	0.216	1.396
2719.8	0.211	1.406
2679.29	0.205	1.413
2640.72	0.201	1.418
2600.21	0.199	1.423
2559.7	0.197	1.43
2519.19	0.193	1.437
2480.61	0.189	1.443
2440.11	0.182	1.45
2399.6	0.172	1.454
2359.09	0.161	1.451
2320.51	0.157	1.443
2280	0.161	1.436
2239.5	0.17	1.437
2220.21	0.173	1.442
2200.92	0.174	1.448
2179.7	0.172	1.455
2139.19	0.161	1.464
2100.61	0.148	1.464
2060.11	0.137	1.458
2019.6	0.129	1.448
1979.09	0.126	1.436
1940.51	0.128	1.423
1900	0.134	1.411
1869.14	0.142	1.403
1840.21	0.152	1.398
1809.34	0.164	1.396
1780.41	0.177	1.397
1749.55	0.191	1.404
1720.61	0.202	1.42
1710.97	0.203	1.426
1699.39	0.203	1.434
1670.46	0.196	1.457
1639.6	0.166	1.474
1610.66	0.133	1.466
1579.8	0.109	1.443
1550.87	0.097	1.416
1520	0.09	1.385
1489.14	0.091	1.352
1460.21	0.093	1.319
1429.34	0.099	1.275
1400.41	0.119	1.221
1369.55	0.157	1.162
1340.61	0.222	1.095
1309.75	0.345	1.069
1280.81	0.426	1.09
1249.95	0.521	1.07
1219.09	0.69	1.113
1211.37	0.728	1.141
1199.8	0.779	1.191
1188.23	0.818	1.249
1176.65	0.848	1.309
1172.79	0.856	1.328
1168.94	0.864	1.347
1163.15	0.878	1.378
1159.29	0.886	1.398
1155.43	0.897	1.421
1151.58	0.906	1.448
1147.72	0.914	1.478
1143.86	0.919	1.514
1140	0.913	1.55
1136.14	0.904	1.583
1132.29	0.891	1.615
1120.71	0.826	1.686
1109.14	0.754	1.717
1097.57	0.687	1.705
1089.85	0.664	1.675
1085.99	0.661	1.656
1082.13	0.667	1.635
1078.28	0.682	1.615
1070.56	0.742	1.597
1058.99	0.849	1.655
1055.13	0.874	1.695
1051.27	0.891	1.74
1043.56	0.897	1.841
1035.84	0.869	1.94
1028.12	0.807	2.03
1024.27	0.765	2.065
1020.41	0.718	2.093
1008.83	0.569	2.118
1004.98	0.525	2.11
1001.12	0.485	2.097
989.55	0.398	2.036
977.97	0.362	1.98
970.26	0.342	1.948
966.4	0.336	1.933
958.68	0.319	1.904
950.97	0.307	1.866
943.25	0.307	1.817
935.53	0.335	1.762
927.82	0.4	1.723
923.96	0.444	1.719
916.25	0.532	1.755
912.39	0.568	1.792
904.67	0.605	1.898
900.81	0.599	1.956
896.96	0.578	2.011
893.1	0.543	2.06
885.38	0.444	2.114
881.52	0.396	2.12
873.81	0.316	2.102
869.95	0.291	2.09
862.24	0.245	2.068
858.38	0.224	2.056
850.66	0.189	2.028
846.8	0.174	2.012
839.09	0.151	1.978
827.51	0.138	1.935
